EC-Lab ASCII FILE
Nb header lines : 68                          

Galvano Electrochemical Impedance Spectroscopy

Run on channel : 1 (SN 66181)
User : 
CE vs. WE compliance from -10 V to 10 V
Electrode connection : standard
Potential control : Ewe
Ewe ctrl range : min = -10.00 V, max = 10.00 V
Safety Limits :
	Do not start on E overload
Acquisition started on : 10/21/2024 15:48:27.372
Technique started on : 10/21/2024 15:50:53.754
Loaded Setting File :  NONE
Saved on :
	File : 3-12-002_BoL-02_03_GEIS_C01.mpr
	Directory : C:\Users\patri\OneDrive\Desktop\Electrolysis Data\October_21_2024-3-12-02\Pstat\
	Host : 10.0.109.145
Device : SP-50e (SN .003546)
Address : USB
EC-Lab for windows v11.43 (software)
Internet server v11.40 (firmware)
Command interpretor v11.40 (firmware)
Electrode material : 
Initial state : 
Electrolyte : 
Comments : 
Electrode surface area : 4.000 cm²
Characteristic mass : 0.001 g
Volume (V) : 0.001 cm³
Thickness (t) : 0.000 cm
Diameter (d) : 0.000 cm
Cell constant (k=t/A) : 0.000 cm-1
Cycle Definition : Charge/Discharge alternance
Mode                Single sine         
Is                  -500.000            
unit Is             mA                  
vs.                 <None>              
tIs (h:m:s)         0:00:0.0000         
record              0                   
dE (mV)             0.000               
dt (s)              0.000               
fi                  1.000               
unit fi             MHz                 
ff                  100.000             
unit ff             mHz                 
Nd                  10                  
Points              per decade          
spacing             Logarithmic         
Ia/Va               Ia                  
Ia                  250.000             
unit  Ia            mA                  
va pourcent         0.10                
pw                  0.10                
Na                  2                   
corr                0                   
E range min (V)     -10.000             
E range max (V)     10.000              
I Range             1 A                 
Bandwidth           5                   
nc cycles           0                   
goto Ns'            0                   
nr cycles           0                   
inc. cycle          0                   

freq/Hz	Re(Z)/Ohm	-Im(Z)/Ohm	|Z|/Ohm	Phase(Z)/deg	time/s	<Ewe>/V	<I>/mA	Cs/µF	Cp/µF	cycle number	|Ewe|/V	|I|/A	Ns	I Range	(Q-Qo)/mA.h	Re(Y)/Ohm-1	Im(Y)/Ohm-1	|Y|/Ohm-1	Phase(Y)/deg	Re(C)/nF	Im(C)/nF	|C|/nF	Phase(C)/deg	Re(M)	Im(M)	|M|	Phase(M)/deg	Re(Permittivity)	Im(Permittivity)	|Permittivity|	Phase(Permittivity)/deg	Re(Resistivity)/Ohm.cm	Im(Resistivity)/Ohm.cm	|Resistivity|/Ohm.cm	Phase(Resistivity)/deg	Re(Conductivity)/mS/cm	Im(Conductivity)/mS/cm	|Conductivity|/mS/cm	Phase(Conductivity)/deg	Tan(Delta)	Loss Angle(Delta)/deg	dq/mA.h	
1.0000186E+006	4.4141820E-001	1.5181488E-001	4.6679524E-001	-1.8979387E+001	1.463823965415213E+002	-3.3499222E+000	-5.0027896E+002	1.0483294E+000	1.1088520E-001	1.000000000000000E+000	7.3324729E-005	1.5708114E-004	0	9	-4.542444371449451E-001	2.0258040E+000	6.9672513E-001	2.1422670E+000	1.8979387E+001	1.1088518E+002	3.2241074E+002	3.4094604E+002	-7.1020615E+001	0.0000000E+000	0.0000000E+000	0.0000000E+000	7.1020615E+001	0.0000000E+000	0.0000000E+000	0.0000000E+000	-7.1020615E+001	0.0000000E+000	0.0000000E+000	0.0000000E+000	-1.8979387E+001	0.0000000E+000	0.0000000E+000	0.0000000E+000	1.8979387E+001	2.9076083E+000	1.8979387E+001	-4.542444371449451E-001
7.9167906E+005	3.0737409E-001	1.5783852E-001	3.4553123E-001	-2.7180782E+001	1.494403966867685E+002	-3.3508215E+000	-5.0032898E+002	1.2736731E+000	2.6577207E-001	1.000000000000000E+000	1.0573369E-004	3.0600329E-004	0	9	-8.785757611774703E-001	2.5744987E+000	1.3220211E+000	2.8940945E+000	2.7180782E+001	2.6577206E+002	5.1756342E+002	5.8181329E+002	-6.2819218E+001	0.0000000E+000	0.0000000E+000	0.0000000E+000	6.2819218E+001	0.0000000E+000	0.0000000E+000	0.0000000E+000	-6.2819218E+001	0.0000000E+000	0.0000000E+000	0.0000000E+000	-2.7180782E+001	0.0000000E+000	0.0000000E+000	0.0000000E+000	2.7180782E+001	1.9473959E+000	2.7180782E+001	-4.243313240325252E-001
6.2676294E+005	0.0000000E+000	0.0000000E+000	0.0000000E+000	0.0000000E+000	1.495893966938456E+002	-3.3480108E+000	-5.0022531E+002	0.0000000E+000	0.0000000E+000	1.000000000000000E+000	0.0000000E+000	0.0000000E+000	0	9	-8.988357690822117E-001	0.0000000E+000	0.0000000E+000	0.0000000E+000	0.0000000E+000	0.0000000E+000	0.0000000E+000	0.0000000E+000	-9.0000000E+001	0.0000000E+000	0.0000000E+000	0.0000000E+000	9.0000000E+001	0.0000000E+000	0.0000000E+000	0.0000000E+000	-9.0000000E+001	0.0000000E+000	0.0000000E+000	0.0000000E+000	0.0000000E+000	0.0000000E+000	0.0000000E+000	0.0000000E+000	0.0000000E+000	0.0000000E+000	0.0000000E+000	-2.026000790474147E-002
4.9619581E+005	3.2095757E-001	8.2300857E-002	3.3134151E-001	-1.4382071E+001	1.526463968390453E+002	-3.3466659E+000	-5.0014026E+002	3.8972895E+000	2.4044719E-001	1.000000000000000E+000	4.4529801E-004	1.3439247E-003	0	9	-1.322959940573126E+000	2.9234519E+000	7.4963987E-001	3.0180342E+000	1.4382071E+001	2.4044717E+002	9.3769788E+002	9.6803522E+002	-7.5617928E+001	0.0000000E+000	0.0000000E+000	0.0000000E+000	7.5617928E+001	0.0000000E+000	0.0000000E+000	0.0000000E+000	-7.5617928E+001	0.0000000E+000	0.0000000E+000	0.0000000E+000	-1.4382071E+001	0.0000000E+000	0.0000000E+000	0.0000000E+000	1.4382071E+001	3.8998084E+000	1.4382071E+001	-4.241241714909143E-001
3.9282400E+005	3.4204623E-001	6.7383565E-002	3.4862038E-001	-1.1144635E+001	1.557043969842925E+002	-3.3491340E+000	-5.0009521E+002	6.0126805E+000	2.2463144E-001	1.000000000000000E+000	1.6007649E-003	4.5917137E-003	0	9	-1.747121656671385E+000	2.8143575E+000	5.5443221E-001	2.8684497E+000	1.1144635E+001	2.2463152E+002	1.1402534E+003	1.1621692E+003	-7.8855362E+001	0.0000000E+000	0.0000000E+000	0.0000000E+000	7.8855362E+001	0.0000000E+000	0.0000000E+000	0.0000000E+000	-7.8855362E+001	0.0000000E+000	0.0000000E+000	0.0000000E+000	-1.1144635E+001	0.0000000E+000	0.0000000E+000	0.0000000E+000	1.1144635E+001	5.0761075E+000	1.1144635E+001	-4.241617160982589E-001
3.1099688E+005	3.4330943E-001	5.9582762E-002	3.4844148E-001	-9.8458443E+000	1.587623971295398E+002	-3.3492594E+000	-5.0015768E+002	8.5890169E+000	2.5114530E-001	1.000000000000000E+000	3.7803249E-003	1.0849239E-002	0	9	-2.171294879379964E+000	2.8276525E+000	4.9075070E-001	2.8699224E+000	9.8458443E+000	2.5114519E+002	1.4470719E+003	1.4687039E+003	-8.0154160E+001	0.0000000E+000	0.0000000E+000	0.0000000E+000	8.0154160E+001	0.0000000E+000	0.0000000E+000	0.0000000E+000	-8.0154160E+001	0.0000000E+000	0.0000000E+000	0.0000000E+000	-9.8458443E+000	0.0000000E+000	0.0000000E+000	0.0000000E+000	9.8458443E+000	5.7618918E+000	9.8458443E+000	-4.241732227085795E-001
2.4620509E+005	3.4363356E-001	6.2561393E-002	3.4928206E-001	-1.0318172E+001	1.618203972747870E+002	-3.3468523E+000	-5.0021185E+002	1.0332768E+001	3.3149499E-001	1.000000000000000E+000	7.8520523E-003	2.2480549E-002	0	9	-2.595513031188925E+000	2.8167157E+000	5.1280689E-001	2.8630157E+000	1.0318172E+001	3.3149490E+002	1.8208164E+003	1.8507461E+003	-7.9681831E+001	0.0000000E+000	0.0000000E+000	0.0000000E+000	7.9681831E+001	0.0000000E+000	0.0000000E+000	0.0000000E+000	-7.9681831E+001	0.0000000E+000	0.0000000E+000	0.0000000E+000	-1.0318172E+001	0.0000000E+000	0.0000000E+000	0.0000000E+000	1.0318172E+001	5.4927416E+000	1.0318172E+001	-4.242181518089607E-001
1.9492280E+005	3.4779707E-001	7.0094742E-002	3.5479018E-001	-1.1394705E+001	1.648783974200342E+002	-3.3447173E+000	-5.0020856E+002	1.1648555E+001	4.5467365E-001	1.000000000000000E+000	1.5936241E-002	4.4917367E-002	0	9	-3.019835459389031E+000	2.7630117E+000	5.5685514E-001	2.8185673E+000	1.1394705E+001	4.5467371E+002	2.2560059E+003	2.3013672E+003	-7.8605293E+001	0.0000000E+000	0.0000000E+000	0.0000000E+000	7.8605293E+001	0.0000000E+000	0.0000000E+000	0.0000000E+000	-7.8605293E+001	0.0000000E+000	0.0000000E+000	0.0000000E+000	-1.1394705E+001	0.0000000E+000	0.0000000E+000	0.0000000E+000	1.1394705E+001	4.9618139E+000	1.1394705E+001	-4.243224282001057E-001
1.5431080E+005	3.5444844E-001	8.0972821E-002	3.6357984E-001	-1.2868247E+001	1.679363975652814E+002	-3.3454621E+000	-5.0026019E+002	1.2737511E+001	6.3177657E-001	1.000000000000000E+000	3.0906025E-002	8.5004784E-002	0	9	-3.444180891155541E+000	2.6813498E+000	6.1254734E-001	2.7504275E+000	1.2868247E+001	6.3177655E+002	2.7655232E+003	2.8367693E+003	-7.7131752E+001	0.0000000E+000	0.0000000E+000	0.0000000E+000	7.7131752E+001	0.0000000E+000	0.0000000E+000	0.0000000E+000	-7.7131752E+001	0.0000000E+000	0.0000000E+000	0.0000000E+000	-1.2868247E+001	0.0000000E+000	0.0000000E+000	0.0000000E+000	1.2868247E+001	4.3773756E+000	1.2868247E+001	-4.243454317665103E-001
1.2217006E+005	3.6765015E-001	9.1415882E-002	3.7884495E-001	-1.3963373E+001	1.709943977105286E+002	-3.3478189E+000	-5.0020099E+002	1.4250617E+001	8.2976288E-001	1.000000000000000E+000	5.1555809E-002	1.3608684E-001	0	9	-3.868453379209777E+000	2.5616026E+000	6.3694024E-001	2.6396024E+000	1.3963373E+001	8.2976276E+002	3.3370837E+003	3.4386965E+003	-7.6036629E+001	0.0000000E+000	0.0000000E+000	0.0000000E+000	7.6036629E+001	0.0000000E+000	0.0000000E+000	0.0000000E+000	-7.6036629E+001	0.0000000E+000	0.0000000E+000	0.0000000E+000	-1.3963373E+001	0.0000000E+000	0.0000000E+000	0.0000000E+000	1.3963373E+001	4.0217319E+000	1.3963373E+001	-4.242724880542355E-001
9.6719125E+004	3.8232976E-001	1.0080605E-001	3.9539587E-001	-1.4770603E+001	1.740523978557758E+002	-3.3468039E+000	-5.0020929E+002	1.6323797E+001	1.0610360E+000	1.000000000000000E+000	7.1595713E-002	1.8107350E-001	0	9	-4.291762989155690E+000	2.4455347E+000	6.4479601E-001	2.5291109E+000	1.4770603E+001	1.0610356E+003	4.0242190E+003	4.1617466E+003	-7.5229401E+001	0.0000000E+000	0.0000000E+000	0.0000000E+000	7.5229401E+001	0.0000000E+000	0.0000000E+000	0.0000000E+000	-7.5229401E+001	0.0000000E+000	0.0000000E+000	0.0000000E+000	-1.4770603E+001	0.0000000E+000	0.0000000E+000	0.0000000E+000	1.4770603E+001	3.7927263E+000	1.4770603E+001	-4.233096099459135E-001
7.6566211E+004	4.0280664E-001	1.0854949E-001	4.1717643E-001	-1.5081956E+001	1.771103980010230E+002	-3.3464975E+000	-4.9978043E+002	1.9149401E+001	1.2964962E+000	1.000000000000000E+000	9.1371268E-002	2.1902308E-001	0	9	-4.716463780188812E+000	2.3144994E+000	6.2371796E-001	2.3970673E+000	1.5081956E+001	1.2964961E+003	4.8110522E+003	4.9826826E+003	-7.4918045E+001	0.0000000E+000	0.0000000E+000	0.0000000E+000	7.4918045E+001	0.0000000E+000	0.0000000E+000	0.0000000E+000	-7.4918045E+001	0.0000000E+000	0.0000000E+000	0.0000000E+000	-1.5081956E+001	0.0000000E+000	0.0000000E+000	0.0000000E+000	1.5081956E+001	3.7108109E+000	1.5081956E+001	-4.247007910331222E-001
6.0616465E+004	4.2494068E-001	1.1323852E-001	4.3976986E-001	-1.4921474E+001	1.773943980145123E+002	-3.3469107E+000	-5.0022830E+002	2.3186508E+001	1.5373502E+000	1.000000000000000E+000	1.1257037E-001	2.5597563E-001	0	9	-4.755468781014589E+000	2.1972394E+000	5.8552212E-001	2.2739167E+000	1.4921474E+001	1.5373499E+003	5.7690845E+003	5.9704087E+003	-7.5078529E+001	0.0000000E+000	0.0000000E+000	0.0000000E+000	7.5078529E+001	0.0000000E+000	0.0000000E+000	0.0000000E+000	-7.5078529E+001	0.0000000E+000	0.0000000E+000	0.0000000E+000	-1.4921474E+001	0.0000000E+000	0.0000000E+000	0.0000000E+000	1.4921474E+001	3.7526159E+000	1.4921474E+001	-3.900500082577629E-002
4.7988422E+004	4.4851241E-001	1.1387751E-001	4.6274340E-001	-1.4246385E+001	1.778243980349362E+002	-3.3463488E+000	-5.0019659E+002	2.9123642E+001	1.7637668E+000	1.000000000000000E+000	1.1967812E-001	2.5862738E-001	0	9	-4.814527969816367E+000	2.0945656E+000	5.3181118E-001	2.1610248E+000	1.4246385E+001	1.7637667E+003	6.9466860E+003	7.1670996E+003	-7.5753616E+001	0.0000000E+000	0.0000000E+000	0.0000000E+000	7.5753616E+001	0.0000000E+000	0.0000000E+000	0.0000000E+000	-7.5753616E+001	0.0000000E+000	0.0000000E+000	0.0000000E+000	-1.4246385E+001	0.0000000E+000	0.0000000E+000	0.0000000E+000	1.4246385E+001	3.9385512E+000	1.4246385E+001	-5.905918880177818E-002
3.8014027E+004	4.7472304E-001	1.1750808E-001	4.8905021E-001	-1.3902958E+001	1.782543980553601E+002	-3.3420379E+000	-4.9405902E+002	3.5629402E+001	2.0570133E+000	1.000000000000000E+000	1.2621053E-001	2.5807273E-001	0	9	-4.874472419698582E+000	1.9848760E+000	4.9131590E-001	2.0447798E+000	1.3902958E+001	2.0570125E+003	8.3101650E+003	8.5609658E+003	-7.6097046E+001	0.0000000E+000	0.0000000E+000	0.0000000E+000	7.6097046E+001	0.0000000E+000	0.0000000E+000	0.0000000E+000	-7.6097046E+001	0.0000000E+000	0.0000000E+000	0.0000000E+000	-1.3902958E+001	0.0000000E+000	0.0000000E+000	0.0000000E+000	1.3902958E+001	4.0399179E+000	1.3902958E+001	-5.994444988221570E-002
3.0080912E+004	4.9126863E-001	1.0284254E-001	5.0191778E-001	-1.1823597E+001	1.786843980757840E+002	-3.3458431E+000	-5.0015118E+002	5.1446564E+001	2.1599157E+000	1.000000000000000E+000	1.2987757E-001	2.5876263E-001	0	9	-4.933603612652911E+000	1.9500865E+000	4.0823254E-001	1.9923582E+000	1.1823597E+001	2.1599150E+003	1.0317703E+004	1.0541358E+004	-7.8176407E+001	0.0000000E+000	0.0000000E+000	0.0000000E+000	7.8176407E+001	0.0000000E+000	0.0000000E+000	0.0000000E+000	-7.8176407E+001	0.0000000E+000	0.0000000E+000	0.0000000E+000	-1.1823597E+001	0.0000000E+000	0.0000000E+000	0.0000000E+000	1.1823597E+001	4.7769012E+000	1.1823597E+001	-5.913119295432878E-002
2.3808643E+004	5.0827348E-001	9.3360595E-002	5.1677668E-001	-1.0408174E+001	1.791143980962079E+002	-3.3457916E+000	-5.0016531E+002	7.1601463E+001	2.3369172E+000	1.000000000000000E+000	1.3254710E-001	2.5648814E-001	0	9	-4.992774328425321E+000	1.9032316E+000	3.4958902E-001	1.9350718E+000	1.0408174E+001	2.3369167E+003	1.2722638E+004	1.2935481E+004	-7.9591827E+001	0.0000000E+000	0.0000000E+000	0.0000000E+000	7.9591827E+001	0.0000000E+000	0.0000000E+000	0.0000000E+000	-7.9591827E+001	0.0000000E+000	0.0000000E+000	0.0000000E+000	-1.0408174E+001	0.0000000E+000	0.0000000E+000	0.0000000E+000	1.0408174E+001	5.4441972E+000	1.0408174E+001	-5.917071577241018E-002
1.8853918E+004	5.2224505E-001	8.3386272E-002	5.2886027E-001	-9.0717764E+000	1.793983981096972E+002	-3.3429458E+000	-5.0016064E+002	1.0123344E+002	2.5166984E+000	1.000000000000000E+000	1.4497034E-001	2.7411842E-001	0	9	-5.031834689088364E+000	1.8672071E+000	2.9813480E-001	1.8908587E+000	9.0717764E+000	2.5166987E+003	1.5761988E+004	1.5961643E+004	-8.0928223E+001	0.0000000E+000	0.0000000E+000	0.0000000E+000	8.0928223E+001	0.0000000E+000	0.0000000E+000	0.0000000E+000	-8.0928223E+001	0.0000000E+000	0.0000000E+000	0.0000000E+000	-9.0717764E+000	0.0000000E+000	0.0000000E+000	0.0000000E+000	9.0717764E+000	6.2629619E+000	9.0717764E+000	-3.906036066304264E-002
1.4929112E+004	5.3316641E-001	7.3596321E-002	5.3822190E-001	-7.8592324E+000	1.798283981301211E+002	-3.3426626E+000	-5.0016553E+002	1.4485385E+002	2.7084417E+000	1.000000000000000E+000	1.3866523E-001	2.5763580E-001	0	9	-5.091028807701680E+000	1.8405179E+000	2.5405830E-001	1.8579698E+000	7.8592324E+000	2.7084412E+003	1.9621229E+004	1.9807277E+004	-8.2140770E+001	0.0000000E+000	0.0000000E+000	0.0000000E+000	8.2140770E+001	0.0000000E+000	0.0000000E+000	0.0000000E+000	-8.2140770E+001	0.0000000E+000	0.0000000E+000	0.0000000E+000	-7.8592324E+000	0.0000000E+000	0.0000000E+000	0.0000000E+000	7.8592324E+000	7.2444711E+000	7.8592324E+000	-5.919411861331625E-002
1.1811533E+004	5.4179573E-001	6.5059423E-002	5.4568797E-001	-6.8473535E+000	1.801123981436103E+002	-3.3439102E+000	-5.0016125E+002	2.0711122E+002	2.9439828E+000	1.000000000000000E+000	1.4564927E-001	2.6690945E-001	0	9	-5.130125047541645E+000	1.8194780E+000	2.1848491E-001	1.8325491E+000	6.8473535E+000	2.9439822E+003	2.4516627E+004	2.4692752E+004	-8.3152649E+001	0.0000000E+000	0.0000000E+000	0.0000000E+000	8.3152649E+001	0.0000000E+000	0.0000000E+000	0.0000000E+000	-8.3152649E+001	0.0000000E+000	0.0000000E+000	0.0000000E+000	-6.8473535E+000	0.0000000E+000	0.0000000E+000	0.0000000E+000	6.8473535E+000	8.3277054E+000	6.8473535E+000	-3.909623983996458E-002
9.3513262E+003	5.4870856E-001	5.8111981E-002	5.5177718E-001	-6.0454788E+000	1.804003981572896E+002	-3.3456807E+000	-5.0014343E+002	2.9287430E+002	3.2485170E+000	1.000000000000000E+000	1.5086760E-001	2.7342123E-001	0	9	-5.169947024315384E+000	1.8022467E+000	1.9087023E-001	1.8123257E+000	6.0454788E+000	3.2485168E+003	3.0673346E+004	3.0844887E+004	-8.3954521E+001	0.0000000E+000	0.0000000E+000	0.0000000E+000	8.3954521E+001	0.0000000E+000	0.0000000E+000	0.0000000E+000	-8.3954521E+001	0.0000000E+000	0.0000000E+000	0.0000000E+000	-6.0454788E+000	0.0000000E+000	0.0000000E+000	0.0000000E+000	6.0454788E+000	9.4422626E+000	6.0454788E+000	-3.982197677373911E-002
7.4089038E+003	5.5513573E-001	5.2350506E-002	5.5759865E-001	-5.3871851E+000	1.809143981817033E+002	-3.3459823E+000	-5.0008359E+002	4.1034134E+002	3.6169593E+000	1.000000000000000E+000	1.4252569E-001	2.5560623E-001	0	9	-5.240485636762420E+000	1.7854831E+000	1.6837494E-001	1.7934046E+000	5.3871851E+000	3.6169587E+003	3.8354992E+004	3.8525160E+004	-8.4612816E+001	0.0000000E+000	0.0000000E+000	0.0000000E+000	8.4612816E+001	0.0000000E+000	0.0000000E+000	0.0000000E+000	-8.4612816E+001	0.0000000E+000	0.0000000E+000	0.0000000E+000	-5.3871851E+000	0.0000000E+000	0.0000000E+000	0.0000000E+000	5.3871851E+000	1.0604209E+001	5.3871851E+000	-7.053861244703619E-002
5.8650859E+003	5.5992877E-001	4.7319539E-002	5.6192470E-001	-4.8305840E+000	1.813253982012247E+002	-3.3461449E+000	-5.0008890E+002	5.7346277E+002	4.0665865E+000	1.000000000000000E+000	1.4536549E-001	2.5869212E-001	0	9	-5.296940045522279E+000	1.7732768E+000	1.4985949E-001	1.7795979E+000	4.8305840E+000	4.0665842E+003	4.8119629E+004	4.8291156E+004	-8.5169418E+001	0.0000000E+000	0.0000000E+000	0.0000000E+000	8.5169418E+001	0.0000000E+000	0.0000000E+000	0.0000000E+000	-8.5169418E+001	0.0000000E+000	0.0000000E+000	0.0000000E+000	-4.8305840E+000	0.0000000E+000	0.0000000E+000	0.0000000E+000	4.8305840E+000	1.1832930E+001	4.8305840E+000	-5.645440875985930E-002
4.6414854E+003	5.6330383E-001	4.4123337E-002	5.6502926E-001	-4.4788079E+000	1.817853982230736E+002	-3.3458502E+000	-5.0006845E+002	7.7713202E+002	4.7390318E+000	1.000000000000000E+000	1.4753729E-001	2.6111442E-001	0	9	-5.360277061530445E+000	1.7644154E+000	1.3820587E-001	1.7698199E+000	4.4788079E+000	4.7390298E+003	6.0501199E+004	6.0686520E+004	-8.5521194E+001	0.0000000E+000	0.0000000E+000	0.0000000E+000	8.5521194E+001	0.0000000E+000	0.0000000E+000	0.0000000E+000	-8.5521194E+001	0.0000000E+000	0.0000000E+000	0.0000000E+000	-4.4788079E+000	0.0000000E+000	0.0000000E+000	0.0000000E+000	4.4788079E+000	1.2766574E+001	4.4788079E+000	-6.333701600816521E-002
3.6761763E+003	5.6759262E-001	4.4509549E-002	5.6933510E-001	-4.4838519E+000	1.822463982449699E+002	-3.3460643E+000	-5.0006607E+002	9.7268134E+002	5.9448519E+000	1.000000000000000E+000	1.4976950E-001	2.6306036E-001	0	9	-5.423849039161457E+000	1.7510591E+000	1.3731478E-001	1.7564348E+000	4.4838519E+000	5.9448477E+003	7.5809664E+004	7.6042398E+004	-8.5516151E+001	0.0000000E+000	0.0000000E+000	0.0000000E+000	8.5516151E+001	0.0000000E+000	0.0000000E+000	0.0000000E+000	-8.5516151E+001	0.0000000E+000	0.0000000E+000	0.0000000E+000	-4.4838519E+000	0.0000000E+000	0.0000000E+000	0.0000000E+000	4.4838519E+000	1.2752154E+001	4.4838519E+000	-6.357197763101219E-002
2.9109316E+003	5.7225317E-001	4.4970050E-002	5.7401741E-001	-4.4933081E+000	1.827073982668662E+002	-3.3447495E+000	-5.0006641E+002	1.2158073E+003	7.4621048E+000	1.000000000000000E+000	1.5158854E-001	2.6408353E-001	0	9	-5.487150233123686E+000	1.7367531E+000	1.3648133E-001	1.7421075E+000	4.4933081E+000	7.4621069E+003	9.4956828E+004	9.5249578E+004	-8.5506691E+001	0.0000000E+000	0.0000000E+000	0.0000000E+000	8.5506691E+001	0.0000000E+000	0.0000000E+000	0.0000000E+000	-8.5506691E+001	0.0000000E+000	0.0000000E+000	0.0000000E+000	-4.4933081E+000	0.0000000E+000	0.0000000E+000	0.0000000E+000	4.4933081E+000	1.2725206E+001	4.4933081E+000	-6.330119396222944E-002
2.3027896E+003	5.7802951E-001	4.5363631E-002	5.7980686E-001	-4.4873624E+000	1.831693982888100E+002	-3.3443708E+000	-5.0006857E+002	1.5235548E+003	9.3262482E+000	1.000000000000000E+000	1.5339036E-001	2.6455423E-001	0	9	-5.550721407577124E+000	1.7194253E+000	1.3494012E-001	1.7247123E+000	4.4873624E+000	9.3262549E+003	1.1883632E+005	1.1920172E+005	-8.5512634E+001	0.0000000E+000	0.0000000E+000	0.0000000E+000	8.5512634E+001	0.0000000E+000	0.0000000E+000	0.0000000E+000	-8.5512634E+001	0.0000000E+000	0.0000000E+000	0.0000000E+000	-4.4873624E+000	0.0000000E+000	0.0000000E+000	0.0000000E+000	4.4873624E+000	1.2742135E+001	4.4873624E+000	-6.357117445343796E-002
1.8232498E+003	5.8502275E-001	4.6309691E-002	5.8685279E-001	-4.5260267E+000	1.836303983107064E+002	-3.3444335E+000	-5.0007703E+002	1.8849597E+003	1.1737822E+001	1.000000000000000E+000	1.5540940E-001	2.6481837E-001	0	9	-5.614268784144845E+000	1.6986911E+000	1.3446634E-001	1.7040049E+000	4.5260267E+000	1.1737814E+004	1.4828198E+005	1.4874583E+005	-8.5473976E+001	0.0000000E+000	0.0000000E+000	0.0000000E+000	8.5473976E+001	0.0000000E+000	0.0000000E+000	0.0000000E+000	-8.5473976E+001	0.0000000E+000	0.0000000E+000	0.0000000E+000	-4.5260267E+000	0.0000000E+000	0.0000000E+000	0.0000000E+000	4.5260267E+000	1.2632836E+001	4.5260267E+000	-6.354737656772080E-002
1.4436138E+003	5.9012669E-001	4.7292199E-002	5.9201866E-001	-4.5818377E+000	1.840913983326027E+002	-3.3428862E+000	-5.0007248E+002	2.3312002E+003	1.4876057E+001	1.000000000000000E+000	1.5688165E-001	2.6499441E-001	0	9	-5.677601417559750E+000	1.6837379E+000	1.3493316E-001	1.6891359E+000	4.5818377E+000	1.4876065E+004	1.8562805E+005	1.8622317E+005	-8.5418159E+001	0.0000000E+000	0.0000000E+000	0.0000000E+000	8.5418159E+001	0.0000000E+000	0.0000000E+000	0.0000000E+000	-8.5418159E+001	0.0000000E+000	0.0000000E+000	0.0000000E+000	-4.5818377E+000	0.0000000E+000	0.0000000E+000	0.0000000E+000	4.5818377E+000	1.2478310E+001	4.5818377E+000	-6.333263341490447E-002
1.1424408E+003	5.9628850E-001	4.8765827E-002	5.9827930E-001	-4.6753736E+000	1.845533983545465E+002	-3.3434861E+000	-5.0007483E+002	2.8567407E+003	1.8979908E+001	1.000000000000000E+000	1.5861145E-001	2.6511270E-001	0	9	-5.741562667907443E+000	1.6658984E+000	1.3624094E-001	1.6714602E+000	4.6753736E+000	1.8979920E+004	2.3207852E+005	2.3285333E+005	-8.5324623E+001	0.0000000E+000	0.0000000E+000	0.0000000E+000	8.5324623E+001	0.0000000E+000	0.0000000E+000	0.0000000E+000	-8.5324623E+001	0.0000000E+000	0.0000000E+000	0.0000000E+000	-4.6753736E+000	0.0000000E+000	0.0000000E+000	0.0000000E+000	4.6753736E+000	1.2227590E+001	4.6753736E+000	-6.396125034769362E-002
9.0528955E+002	6.0246533E-001	5.0519556E-002	6.0457975E-001	-4.7933073E+000	1.850133983763953E+002	-3.3431916E+000	-5.0007370E+002	3.4799507E+003	2.4298807E+001	1.000000000000000E+000	1.6033299E-001	2.6519743E-001	0	9	-5.805114250340498E+000	1.6482568E+000	1.3821410E-001	1.6540415E+000	4.7933073E+000	2.4298791E+004	2.8977269E+005	2.9078969E+005	-8.5206696E+001	0.0000000E+000	0.0000000E+000	0.0000000E+000	8.5206696E+001	0.0000000E+000	0.0000000E+000	0.0000000E+000	-8.5206696E+001	0.0000000E+000	0.0000000E+000	0.0000000E+000	-4.7933073E+000	0.0000000E+000	0.0000000E+000	0.0000000E+000	4.7933073E+000	1.1925388E+001	4.7933073E+000	-6.355158243305503E-002
7.1614563E+002	6.0913819E-001	5.2709479E-002	6.1141443E-001	-4.9455557E+000	1.854743983982917E+002	-3.3437636E+000	-5.0006485E+002	4.2162856E+003	3.1335464E+001	1.000000000000000E+000	1.6218235E-001	2.6525763E-001	0	9	-5.868579555840174E+000	1.6294627E+000	1.4099942E-001	1.6355518E+000	4.9455557E+000	3.1335471E+004	3.6212894E+005	3.6348216E+005	-8.5054443E+001	0.0000000E+000	0.0000000E+000	0.0000000E+000	8.5054443E+001	0.0000000E+000	0.0000000E+000	0.0000000E+000	-8.5054443E+001	0.0000000E+000	0.0000000E+000	0.0000000E+000	-4.9455557E+000	0.0000000E+000	0.0000000E+000	0.0000000E+000	4.9455557E+000	1.1556520E+001	4.9455557E+000	-6.346530549967611E-002
5.6736023E+002	6.1502230E-001	5.5374566E-002	6.1751014E-001	-5.1448493E+000	1.859333984200930E+002	-3.3432343E+000	-5.0006815E+002	5.0658335E+003	4.0736473E+001	1.000000000000000E+000	1.6383167E-001	2.6531008E-001	0	9	-5.931776151849601E+000	1.6128823E+000	1.4521857E-001	1.6194066E+000	5.1448493E+000	4.0736488E+004	4.5244303E+005	4.5427322E+005	-8.4855148E+001	0.0000000E+000	0.0000000E+000	0.0000000E+000	8.4855148E+001	0.0000000E+000	0.0000000E+000	0.0000000E+000	-8.4855148E+001	0.0000000E+000	0.0000000E+000	0.0000000E+000	-5.1448493E+000	0.0000000E+000	0.0000000E+000	0.0000000E+000	5.1448493E+000	1.1106585E+001	5.1448493E+000	-6.319659600942629E-002
4.4899423E+002	6.2313485E-001	5.8584437E-002	6.2588274E-001	-5.3709135E+000	1.863953984420368E+002	-3.3432360E+000	-5.0006516E+002	6.0505811E+003	5.3012180E+001	1.000000000000000E+000	1.6607440E-001	2.6534426E-001	0	9	-5.995776049725632E+000	1.5907286E+000	1.4955342E-001	1.5977434E+000	5.3709135E+000	5.3012156E+004	5.6386544E+005	5.6635194E+005	-8.4629089E+001	0.0000000E+000	0.0000000E+000	0.0000000E+000	8.4629089E+001	0.0000000E+000	0.0000000E+000	0.0000000E+000	-8.4629089E+001	0.0000000E+000	0.0000000E+000	0.0000000E+000	-5.3709135E+000	0.0000000E+000	0.0000000E+000	0.0000000E+000	5.3709135E+000	1.0636525E+001	5.3709135E+000	-6.399989787603122E-002
3.5556894E+002	6.3191271E-001	6.1800942E-002	6.3492757E-001	-5.5857525E+000	1.868553984638856E+002	-3.3440635E+000	-5.0006927E+002	7.2427124E+003	6.8618790E+001	1.000000000000000E+000	1.6849160E-001	2.6537138E-001	0	9	-6.059506487927225E+000	1.5675042E+000	1.5330161E-001	1.5749828E+000	5.5857525E+000	6.8618813E+004	7.0162494E+005	7.0497244E+005	-8.4414246E+001	0.0000000E+000	0.0000000E+000	0.0000000E+000	8.4414246E+001	0.0000000E+000	0.0000000E+000	0.0000000E+000	-8.4414246E+001	0.0000000E+000	0.0000000E+000	0.0000000E+000	-5.5857525E+000	0.0000000E+000	0.0000000E+000	0.0000000E+000	5.5857525E+000	1.0224969E+001	5.5857525E+000	-6.373043820159285E-002
2.8153149E+002	6.4277458E-001	6.5113097E-002	6.4606416E-001	-5.7843337E+000	1.873143984856870E+002	-3.3432760E+000	-5.0006326E+002	8.6820996E+003	8.8188141E+001	1.000000000000000E+000	1.7145798E-001	2.6538846E-001	0	9	-6.123310042154087E+000	1.5399529E+000	1.5599731E-001	1.5478339E+000	5.7843337E+000	8.8188133E+004	8.7056375E+005	8.7501906E+005	-8.4215668E+001	0.0000000E+000	0.0000000E+000	0.0000000E+000	8.4215668E+001	0.0000000E+000	0.0000000E+000	0.0000000E+000	-8.4215668E+001	0.0000000E+000	0.0000000E+000	0.0000000E+000	-5.7843337E+000	0.0000000E+000	0.0000000E+000	0.0000000E+000	5.7843337E+000	9.8716631E+000	5.7843337E+000	-6.380355422686268E-002
2.2278993E+002	6.5304893E-001	6.8298168E-002	6.5661067E-001	-5.9704905E+000	1.877793985077733E+002	-3.3432064E+000	-5.0007410E+002	1.0459610E+004	1.1316647E+002	1.000000000000000E+000	1.7426968E-001	2.6540792E-001	0	9	-6.187791328954193E+000	1.5147113E+000	1.5841386E-001	1.5229725E+000	5.9704905E+000	1.1316645E+005	1.0820676E+006	1.0879693E+006	-8.4029510E+001	0.0000000E+000	0.0000000E+000	0.0000000E+000	8.4029510E+001	0.0000000E+000	0.0000000E+000	0.0000000E+000	-8.4029510E+001	0.0000000E+000	0.0000000E+000	0.0000000E+000	-5.9704905E+000	0.0000000E+000	0.0000000E+000	0.0000000E+000	5.9704905E+000	9.5617342E+000	5.9704905E+000	-6.448128680010612E-002
1.7641125E+002	6.6363156E-001	7.1770184E-002	6.6750115E-001	-6.1724138E+000	1.882373985295271E+002	-3.3422740E+000	-5.0007303E+002	1.2570420E+004	1.4532285E+002	1.000000000000000E+000	1.7717142E-001	2.6542491E-001	0	9	-6.250639961101452E+000	1.4894398E+000	1.6107941E-001	1.4981247E+000	6.1724138E+000	1.4532291E+005	1.3437449E+006	1.3515803E+006	-8.3827583E+001	0.0000000E+000	0.0000000E+000	0.0000000E+000	8.3827583E+001	0.0000000E+000	0.0000000E+000	0.0000000E+000	-8.3827583E+001	0.0000000E+000	0.0000000E+000	0.0000000E+000	-6.1724138E+000	0.0000000E+000	0.0000000E+000	0.0000000E+000	6.1724138E+000	9.2466192E+000	6.1724138E+000	-6.284863214725878E-002
1.3968707E+002	6.7445195E-001	7.4900940E-002	6.7859823E-001	-6.3369894E+000	1.886993985514709E+002	-3.3407900E+000	-5.0006339E+002	1.5211661E+004	1.8532147E+002	1.000000000000000E+000	1.8012172E-001	2.6543206E-001	0	9	-6.314579683148795E+000	1.4646220E+000	1.6265291E-001	1.4736260E+000	6.3369894E+000	1.8532152E+005	1.6687431E+006	1.6790020E+006	-8.3663010E+001	0.0000000E+000	0.0000000E+000	0.0000000E+000	8.3663010E+001	0.0000000E+000	0.0000000E+000	0.0000000E+000	-8.3663010E+001	0.0000000E+000	0.0000000E+000	0.0000000E+000	-6.3369894E+000	0.0000000E+000	0.0000000E+000	0.0000000E+000	6.3369894E+000	9.0045862E+000	6.3369894E+000	-6.393972204734233E-002
1.1045951E+002	6.8645358E-001	7.8273624E-002	6.9090182E-001	-6.5051179E+000	1.891583985732723E+002	-3.3403146E+000	-5.0006296E+002	1.8407785E+004	2.3626521E+002	1.000000000000000E+000	1.8339400E-001	2.6544148E-001	0	9	-6.377836051867657E+000	1.4380651E+000	1.6397694E-001	1.4473836E+000	6.5051179E+000	2.3626527E+005	2.0720275E+006	2.0854543E+006	-8.3494881E+001	0.0000000E+000	0.0000000E+000	0.0000000E+000	8.3494881E+001	0.0000000E+000	0.0000000E+000	0.0000000E+000	-8.3494881E+001	0.0000000E+000	0.0000000E+000	0.0000000E+000	-6.5051179E+000	0.0000000E+000	0.0000000E+000	0.0000000E+000	6.5051179E+000	8.7699223E+000	6.5051179E+000	-6.325636871886253E-002
8.7453354E+001	6.9819188E-001	8.1521474E-002	7.0293504E-001	-6.6597486E+000	1.896303985956911E+002	-3.3395951E+000	-5.0005307E+002	2.2323980E+004	3.0025156E+002	1.000000000000000E+000	1.8659253E-001	2.6544777E-001	0	9	-6.443057795945598E+000	1.4130074E+000	1.6498393E-001	1.4226066E+000	6.6597486E+000	3.0025172E+005	2.5715090E+006	2.5889785E+006	-8.3340248E+001	0.0000000E+000	0.0000000E+000	0.0000000E+000	8.3340248E+001	0.0000000E+000	0.0000000E+000	0.0000000E+000	-8.3340248E+001	0.0000000E+000	0.0000000E+000	0.0000000E+000	-6.6597486E+000	0.0000000E+000	0.0000000E+000	0.0000000E+000	6.6597486E+000	8.5645151E+000	6.6597486E+000	-6.522174407794079E-002
6.9312424E+001	7.1162486E-001	8.4244542E-002	7.1659410E-001	-6.7514439E+000	1.900953986177774E+002	-3.3400054E+000	-5.0007828E+002	2.7256322E+004	3.7670758E+002	1.000000000000000E+000	1.9022836E-001	2.6546180E-001	0	9	-6.507251567441205E+000	1.3858131E+000	1.6405721E-001	1.3954902E+000	6.7514439E+000	3.7670750E+005	3.1820995E+006	3.2043198E+006	-8.3248558E+001	0.0000000E+000	0.0000000E+000	0.0000000E+000	8.3248558E+001	0.0000000E+000	0.0000000E+000	0.0000000E+000	-8.3248558E+001	0.0000000E+000	0.0000000E+000	0.0000000E+000	-6.7514439E+000	0.0000000E+000	0.0000000E+000	0.0000000E+000	6.7514439E+000	8.4471331E+000	6.7514439E+000	-6.419377149560734E-002
5.4877075E+001	7.2555435E-001	8.6928517E-002	7.3074323E-001	-6.8320298E+000	1.905583986397687E+002	-3.3402026E+000	-5.0005444E+002	3.3363141E+004	4.7213028E+002	1.000000000000000E+000	1.9398484E-001	2.6546237E-001	0	9	-6.571105998769747E+000	1.3587525E+000	1.6279185E-001	1.3684697E+000	6.8320298E+000	4.7213034E+005	3.9406648E+006	3.9688470E+006	-8.3167969E+001	0.0000000E+000	0.0000000E+000	0.0000000E+000	8.3167969E+001	0.0000000E+000	0.0000000E+000	0.0000000E+000	-8.3167969E+001	0.0000000E+000	0.0000000E+000	0.0000000E+000	-6.8320298E+000	0.0000000E+000	0.0000000E+000	0.0000000E+000	6.8320298E+000	8.3465633E+000	6.8320298E+000	-6.385443132854185E-002
4.3402779E+001	7.4026054E-001	8.8371016E-002	7.4551666E-001	-6.8076539E+000	1.910343986623775E+002	-3.3409488E+000	-5.0004877E+002	4.1494711E+004	5.8303918E+002	1.000000000000000E+000	1.9790731E-001	2.6546329E-001	0	9	-6.637109720334874E+000	1.3318946E+000	1.5899928E-001	1.3413516E+000	6.8076539E+000	5.8303938E+005	4.8839645E+006	4.9186425E+006	-8.3192345E+001	0.0000000E+000	0.0000000E+000	0.0000000E+000	8.3192345E+001	0.0000000E+000	0.0000000E+000	0.0000000E+000	-8.3192345E+001	0.0000000E+000	0.0000000E+000	0.0000000E+000	-6.8076539E+000	0.0000000E+000	0.0000000E+000	0.0000000E+000	6.8076539E+000	8.3767347E+000	6.8076539E+000	-6.600372156512702E-002
3.4394650E+001	7.5527090E-001	9.0311423E-002	7.6065123E-001	-6.8187599E+000	1.915023986846063E+002	-3.3407881E+000	-5.0006308E+002	5.1237336E+004	7.2227203E+002	1.000000000000000E+000	2.0192899E-001	2.6546857E-001	0	9	-6.701902031899412E+000	1.3053639E+000	1.5608872E-001	1.3146629E+000	6.8187599E+000	7.2227163E+005	6.0403330E+006	6.0833625E+006	-8.3181244E+001	0.0000000E+000	0.0000000E+000	0.0000000E+000	8.3181244E+001	0.0000000E+000	0.0000000E+000	0.0000000E+000	-8.3181244E+001	0.0000000E+000	0.0000000E+000	0.0000000E+000	-6.8187599E+000	0.0000000E+000	0.0000000E+000	0.0000000E+000	6.8187599E+000	8.3629608E+000	6.8187599E+000	-6.479231156453835E-002
2.7202301E+001	7.6899713E-001	9.0244569E-002	7.7427429E-001	-6.6932507E+000	1.919303987049352E+002	-3.3403275E+000	-5.0006995E+002	6.4832594E+004	8.8073627E+002	1.000000000000000E+000	2.0554876E-001	2.6547280E-001	0	9	-6.760547342495375E+000	1.2827294E+000	1.5053287E-001	1.2915319E+000	6.6932507E+000	8.8073650E+005	7.5049800E+006	7.5564820E+006	-8.3306747E+001	0.0000000E+000	0.0000000E+000	0.0000000E+000	8.3306747E+001	0.0000000E+000	0.0000000E+000	0.0000000E+000	-8.3306747E+001	0.0000000E+000	0.0000000E+000	0.0000000E+000	-6.6932507E+000	0.0000000E+000	0.0000000E+000	0.0000000E+000	6.6932507E+000	8.5212564E+000	6.6932507E+000	-5.864531059596256E-002
2.1551723E+001	7.8330791E-001	8.9837722E-002	7.8844285E-001	-6.5426760E+000	1.923623987254541E+002	-3.3394082E+000	-5.0007208E+002	8.2201438E+004	1.0672261E+003	1.000000000000000E+000	2.0931213E-001	2.6547533E-001	0	9	-6.820606488668123E+000	1.2600625E+000	1.4451678E-001	1.2683227E+000	6.5426760E+000	1.0672265E+006	9.3052960E+006	9.3662960E+006	-8.3457321E+001	0.0000000E+000	0.0000000E+000	0.0000000E+000	8.3457321E+001	0.0000000E+000	0.0000000E+000	0.0000000E+000	-8.3457321E+001	0.0000000E+000	0.0000000E+000	0.0000000E+000	-6.5426760E+000	0.0000000E+000	0.0000000E+000	0.0000000E+000	6.5426760E+000	8.7191429E+000	6.5426760E+000	-6.005914617274843E-002
1.7057858E+001	8.0064845E-001	8.8682547E-002	8.0554485E-001	-6.3205118E+000	1.927743987450231E+002	-3.3381400E+000	-5.0008133E+002	1.0521011E+005	1.2751296E+003	1.000000000000000E+000	2.1385476E-001	2.6547840E-001	0	9	-6.877544970284621E+000	1.2338501E+000	1.3666545E-001	1.2413958E+000	6.3205118E+000	1.2751295E+006	1.1512193E+007	1.1582597E+007	-8.3679489E+001	0.0000000E+000	0.0000000E+000	0.0000000E+000	8.3679489E+001	0.0000000E+000	0.0000000E+000	0.0000000E+000	-8.3679489E+001	0.0000000E+000	0.0000000E+000	0.0000000E+000	-6.3205118E+000	0.0000000E+000	0.0000000E+000	0.0000000E+000	6.3205118E+000	9.0282526E+000	6.3205118E+000	-5.693848161649750E-002
1.3500864E+001	8.1466061E-001	8.7926395E-002	8.1939185E-001	-6.1600928E+000	1.932813987691043E+002	-3.3370883E+000	-5.0007690E+002	1.3407238E+005	1.5438125E+003	1.000000000000000E+000	2.1752942E-001	2.6547667E-001	0	9	-6.947494957190461E+000	1.2133706E+000	1.3095918E-001	1.2204173E+000	6.1600928E+000	1.5438131E+006	1.4303820E+007	1.4386891E+007	-8.3839905E+001	0.0000000E+000	0.0000000E+000	0.0000000E+000	8.3839905E+001	0.0000000E+000	0.0000000E+000	0.0000000E+000	-8.3839905E+001	0.0000000E+000	0.0000000E+000	0.0000000E+000	-6.1600928E+000	0.0000000E+000	0.0000000E+000	0.0000000E+000	6.1600928E+000	9.2652569E+000	6.1600928E+000	-6.994998690583998E-002
1.0687415E+001	8.3188438E-001	8.4372528E-002	8.3615214E-001	-5.7913275E+000	1.937153987897182E+002	-3.3356931E+000	-5.0007047E+002	1.7650069E+005	1.7971234E+003	1.000000000000000E+000	2.2198160E-001	2.6547992E-001	0	9	-7.005351212355614E+000	1.1898504E+000	1.2067864E-001	1.1959546E+000	5.7913275E+000	1.7971236E+006	1.7719026E+007	1.7809928E+007	-8.4208672E+001	0.0000000E+000	0.0000000E+000	0.0000000E+000	8.4208672E+001	0.0000000E+000	0.0000000E+000	0.0000000E+000	-8.4208672E+001	0.0000000E+000	0.0000000E+000	0.0000000E+000	-5.7913275E+000	0.0000000E+000	0.0000000E+000	0.0000000E+000	5.7913275E+000	9.8596592E+000	5.7913275E+000	-5.785625516515314E-002
8.4550838E+000	8.4189445E-001	8.1431665E-002	8.4582347E-001	-5.5247092E+000	1.942503988151293E+002	-3.3333328E+000	-5.0005502E+002	2.3115798E+005	2.1425752E+003	1.000000000000000E+000	2.2455220E-001	2.6548353E-001	0	9	-7.081666232141727E+000	1.1767879E+000	1.1382401E-001	1.1822798E+000	5.5247092E+000	2.1425763E+006	2.2151360E+007	2.2254738E+007	-8.4475288E+001	0.0000000E+000	0.0000000E+000	0.0000000E+000	8.4475288E+001	0.0000000E+000	0.0000000E+000	0.0000000E+000	-8.4475288E+001	0.0000000E+000	0.0000000E+000	0.0000000E+000	-5.5247092E+000	0.0000000E+000	0.0000000E+000	0.0000000E+000	5.5247092E+000	1.0338662E+001	5.5247092E+000	-7.631501978611244E-002
6.7002573E+000	8.5879016E-001	7.5108483E-002	8.6206836E-001	-4.9982839E+000	1.946103988322284E+002	-3.3327334E+000	-5.0006921E+002	3.1625666E+005	2.4006799E+003	1.000000000000000E+000	2.2886162E-001	2.6547965E-001	0	9	-7.128089247019887E+000	1.1555897E+000	1.0106612E-001	1.1600008E+000	4.9982839E+000	2.4006798E+006	2.7449366E+007	2.7554146E+007	-8.5001717E+001	0.0000000E+000	0.0000000E+000	0.0000000E+000	8.5001717E+001	0.0000000E+000	0.0000000E+000	0.0000000E+000	-8.5001717E+001	0.0000000E+000	0.0000000E+000	0.0000000E+000	-4.9982839E+000	0.0000000E+000	0.0000000E+000	0.0000000E+000	4.9982839E+000	1.1433997E+001	4.9982839E+000	-4.642301487816081E-002
5.3074050E+000	8.6983258E-001	7.0939898E-002	8.7272054E-001	-4.6624846E+000	1.950483988530323E+002	-3.3322277E+000	-5.0008072E+002	4.2271472E+005	2.7930459E+003	1.000000000000000E+000	2.3169124E-001	2.6548159E-001	0	9	-7.191672815744108E+000	1.1420504E+000	9.3140848E-002	1.1458422E+000	4.6624846E+000	2.7930450E+006	3.4247052E+007	3.4360756E+007	-8.5337517E+001	0.0000000E+000	0.0000000E+000	0.0000000E+000	8.5337517E+001	0.0000000E+000	0.0000000E+000	0.0000000E+000	-8.5337517E+001	0.0000000E+000	0.0000000E+000	0.0000000E+000	-4.6624846E+000	0.0000000E+000	0.0000000E+000	0.0000000E+000	4.6624846E+000	1.2261542E+001	4.6624846E+000	-6.358356872422100E-002
4.2002687E+000	8.8597357E-001	6.4723313E-002	8.8833457E-001	-4.1782246E+000	1.955883988786809E+002	-3.3317873E+000	-5.0005377E+002	5.8543988E+005	3.1077827E+003	1.000000000000000E+000	2.3583701E-001	2.6548219E-001	0	9	-7.266985690806197E+000	1.1227102E+000	8.2017705E-002	1.1257020E+000	4.1782246E+000	3.1077813E+006	4.2541296E+007	4.2654660E+007	-8.5821777E+001	0.0000000E+000	0.0000000E+000	0.0000000E+000	8.5821777E+001	0.0000000E+000	0.0000000E+000	0.0000000E+000	-8.5821777E+001	0.0000000E+000	0.0000000E+000	0.0000000E+000	-4.1782246E+000	0.0000000E+000	0.0000000E+000	0.0000000E+000	4.1782246E+000	1.3688631E+001	4.1782246E+000	-7.531287506208884E-002
3.3272998E+000	8.9505160E-001	5.5039961E-002	8.9674228E-001	-3.5188937E+000	1.962563989104092E+002	-3.3329182E+000	-5.0006158E+002	8.6906063E+005	3.2739421E+003	1.000000000000000E+000	2.3807135E-001	2.6548469E-001	0	9	-7.355144751494248E+000	1.1130451E+000	6.8445168E-002	1.1151476E+000	3.5188937E+000	3.2739390E+006	5.3240356E+007	5.3340924E+007	-8.6481110E+001	0.0000000E+000	0.0000000E+000	0.0000000E+000	8.6481110E+001	0.0000000E+000	0.0000000E+000	0.0000000E+000	-8.6481110E+001	0.0000000E+000	0.0000000E+000	0.0000000E+000	-3.5188937E+000	0.0000000E+000	0.0000000E+000	0.0000000E+000	3.5188937E+000	1.6261850E+001	3.5188937E+000	-8.815906068805113E-002
2.6304717E+000	8.9803755E-001	5.7767682E-002	8.9989364E-001	-3.6805704E+000	1.970913989500696E+002	-3.3315337E+000	-5.0005258E+002	1.0473735E+006	4.3160762E+003	1.000000000000000E+000	2.3890769E-001	2.6548436E-001	0	9	-7.468623046534254E+000	1.1089504E+000	7.1334988E-002	1.1112424E+000	3.6805704E+000	4.3160785E+006	6.7096308E+007	6.7234984E+007	-8.6319427E+001	0.0000000E+000	0.0000000E+000	0.0000000E+000	8.6319427E+001	0.0000000E+000	0.0000000E+000	0.0000000E+000	-8.6319427E+001	0.0000000E+000	0.0000000E+000	0.0000000E+000	-3.6805704E+000	0.0000000E+000	0.0000000E+000	0.0000000E+000	3.6805704E+000	1.5545674E+001	3.6805704E+000	-1.134782950400055E-001
2.0822227E+000	9.0752548E-001	5.1080219E-002	9.0896189E-001	-3.2215030E+000	1.981353989996569E+002	-3.3296182E+000	-5.0005777E+002	1.4963743E+006	4.7255718E+003	1.000000000000000E+000	2.4131534E-001	2.6548454E-001	0	9	-7.616982255912735E+000	1.0984176E+000	6.1824612E-002	1.1001562E+000	3.2215030E+000	4.7255735E+006	8.3957680E+007	8.4090568E+007	-8.6778496E+001	0.0000000E+000	0.0000000E+000	0.0000000E+000	8.6778496E+001	0.0000000E+000	0.0000000E+000	0.0000000E+000	-8.6778496E+001	0.0000000E+000	0.0000000E+000	0.0000000E+000	-3.2215030E+000	0.0000000E+000	0.0000000E+000	0.0000000E+000	3.2215030E+000	1.7766672E+001	3.2215030E+000	-1.483592093784809E-001
1.6482069E+000	9.1440344E-001	3.6491875E-002	9.1513133E-001	-2.2853386E+000	1.994443990618311E+002	-3.3298271E+000	-5.0005502E+002	2.6461365E+006	4.2076318E+003	1.000000000000000E+000	2.4295472E-001	2.6548618E-001	0	9	-7.804692846044487E+000	1.0918702E+000	4.3574192E-002	1.0927393E+000	2.2853386E+000	4.2076330E+006	1.0543368E+008	1.0551761E+008	-8.7714661E+001	0.0000000E+000	0.0000000E+000	0.0000000E+000	8.7714661E+001	0.0000000E+000	0.0000000E+000	0.0000000E+000	-8.7714661E+001	0.0000000E+000	0.0000000E+000	0.0000000E+000	-2.2853386E+000	0.0000000E+000	0.0000000E+000	0.0000000E+000	2.2853386E+000	2.5057728E+001	2.2853386E+000	-1.877105901317524E-001
1.3068749E+000	9.2174131E-001	2.9094541E-002	9.2220038E-001	-1.8079271E+000	2.010863991398219E+002	-3.3295677E+000	-5.0005853E+002	4.1857630E+006	4.1662666E+003	1.000000000000000E+000	2.4482745E-001	2.6548183E-001	0	9	-8.035016742716895E+000	1.0838232E+000	3.4210615E-002	1.0843630E+000	1.8079271E+000	4.1662730E+006	1.3199108E+008	1.3205682E+008	-8.8192070E+001	0.0000000E+000	0.0000000E+000	0.0000000E+000	8.8192070E+001	0.0000000E+000	0.0000000E+000	0.0000000E+000	-8.8192070E+001	0.0000000E+000	0.0000000E+000	0.0000000E+000	-1.8079271E+000	0.0000000E+000	0.0000000E+000	0.0000000E+000	1.8079271E+000	3.1680902E+001	1.8079271E+000	-2.303238966724077E-001
1.0344945E+000	9.2626244E-001	2.4626551E-002	9.2658973E-001	-1.5229648E+000	2.031513992379041E+002	-3.3293781E+000	-5.0005270E+002	6.2472425E+006	4.4128643E+003	1.000000000000000E+000	2.4599533E-001	2.6548463E-001	0	9	-8.316514023056852E+000	1.0788450E+000	2.8683266E-002	1.0792263E+000	1.5229648E+000	4.4128630E+006	1.6597818E+008	1.6603683E+008	-8.8477036E+001	0.0000000E+000	0.0000000E+000	0.0000000E+000	8.8477036E+001	0.0000000E+000	0.0000000E+000	0.0000000E+000	-8.8477036E+001	0.0000000E+000	0.0000000E+000	0.0000000E+000	-1.5229648E+000	0.0000000E+000	0.0000000E+000	0.0000000E+000	1.5229648E+000	3.7612350E+001	1.5229648E+000	-2.814972803399574E-001
8.1823438E-001	9.2418575E-001	1.8998234E-002	9.2438102E-001	-1.1776478E+000	2.057523993614450E+002	-3.3281715E+000	-5.0005145E+002	1.0238332E+007	4.3246763E+003	1.000000000000000E+000	2.4541155E-001	2.6548743E-001	0	9	-8.666491822407723E+000	1.0815765E+000	2.2233672E-002	1.0818050E+000	1.1776478E+000	4.3246860E+006	2.1037766E+008	2.1042211E+008	-8.8822350E+001	0.0000000E+000	0.0000000E+000	0.0000000E+000	8.8822350E+001	0.0000000E+000	0.0000000E+000	0.0000000E+000	-8.8822350E+001	0.0000000E+000	0.0000000E+000	0.0000000E+000	-1.1776478E+000	0.0000000E+000	0.0000000E+000	0.0000000E+000	1.1776478E+000	4.8645878E+001	1.1776478E+000	-3.499777993508708E-001
6.4737320E-001	9.2795199E-001	1.5288666E-002	9.2807794E-001	-9.4390309E-001	2.090323995172366E+002	-3.3284059E+000	-5.0017282E+002	1.6080361E+007	4.3638125E+003	1.000000000000000E+000	2.4631843E-001	2.6540706E-001	0	9	-9.109936943767520E+000	1.0773494E+000	1.7750096E-002	1.0774957E+000	9.4390309E-001	4.3638035E+006	2.6486346E+008	2.6489941E+008	-8.9056099E+001	0.0000000E+000	0.0000000E+000	0.0000000E+000	8.9056099E+001	0.0000000E+000	0.0000000E+000	0.0000000E+000	-8.9056099E+001	0.0000000E+000	0.0000000E+000	0.0000000E+000	-9.4390309E-001	0.0000000E+000	0.0000000E+000	0.0000000E+000	9.4390309E-001	6.0695419E+001	9.4390309E-001	-4.434451213597974E-001
5.1303518E-001	9.3003726E-001	8.7053617E-003	9.3007803E-001	-5.3628594E-001	2.131613997133536E+002	-3.3279896E+000	-5.0015100E+002	3.5635772E+007	3.1219148E+003	1.000000000000000E+000	2.4693392E-001	2.6549807E-001	0	9	-9.679150603501002E+000	1.0751315E+000	1.0063477E-002	1.0751786E+000	5.3628594E-001	3.1219118E+006	3.3352976E+008	3.3354438E+008	-8.9463715E+001	0.0000000E+000	0.0000000E+000	0.0000000E+000	8.9463715E+001	0.0000000E+000	0.0000000E+000	0.0000000E+000	-8.9463715E+001	0.0000000E+000	0.0000000E+000	0.0000000E+000	-5.3628594E-001	0.0000000E+000	0.0000000E+000	0.0000000E+000	5.3628594E-001	1.0683499E+002	5.3628594E-001	-5.692136597334816E-001
4.0630850E-001	9.3219125E-001	6.5136370E-003	9.3221402E-001	-4.0034470E-001	2.183673999606253E+002	-3.3265848E+000	-5.0007898E+002	6.0136852E+007	2.9360032E+003	1.000000000000000E+000	2.4750955E-001	2.6550722E-001	0	9	-1.041161154881883E+001	1.0726888E+000	7.4953563E-003	1.0727150E+000	4.0034470E-001	2.9360043E+006	4.2018253E+008	4.2019280E+008	-8.9599655E+001	0.0000000E+000	0.0000000E+000	0.0000000E+000	8.9599655E+001	0.0000000E+000	0.0000000E+000	0.0000000E+000	-8.9599655E+001	0.0000000E+000	0.0000000E+000	0.0000000E+000	-4.0034470E-001	0.0000000E+000	0.0000000E+000	0.0000000E+000	4.0034470E-001	1.4311378E+002	4.0034470E-001	-7.324609453178255E-001
3.2144913E-001	9.3553704E-001	3.4291595E-003	9.3554330E-001	-2.1001358E-001	2.249384002727311E+002	-3.3265712E+000	-5.0005646E+002	1.4438437E+008	1.9398484E+003	1.000000000000000E+000	2.4837476E-001	2.6548719E-001	0	9	-1.134720966473970E+001	1.0688905E+000	3.9179591E-003	1.0688976E+000	2.1001358E-001	1.9398553E+006	5.2922586E+008	5.2922941E+008	-8.9789986E+001	0.0000000E+000	0.0000000E+000	0.0000000E+000	8.9789986E+001	0.0000000E+000	0.0000000E+000	0.0000000E+000	-8.9789986E+001	0.0000000E+000	0.0000000E+000	0.0000000E+000	-2.1001358E-001	0.0000000E+000	0.0000000E+000	0.0000000E+000	2.1001358E-001	2.7281818E+002	2.1001358E-001	-9.355981159208735E-001
2.5471115E-001	9.3782622E-001	1.4281315E-003	9.3782729E-001	-8.7250546E-002	2.332254006663425E+002	-3.3254287E+000	-5.0004614E+002	4.3752614E+008	1.0145995E+003	1.000000000000000E+000	2.4897692E-001	2.6548269E-001	0	9	-1.252526006489870E+001	1.0662932E+000	1.6237624E-003	1.0662944E+000	8.7250546E-002	1.0145904E+006	6.6626778E+008	6.6626854E+008	-8.9912750E+001	0.0000000E+000	0.0000000E+000	0.0000000E+000	8.9912750E+001	0.0000000E+000	0.0000000E+000	0.0000000E+000	-8.9912750E+001	0.0000000E+000	0.0000000E+000	0.0000000E+000	-8.7250546E-002	0.0000000E+000	0.0000000E+000	0.0000000E+000	8.7250546E-002	6.5668060E+002	8.7250546E-002	-1.178050400159002E+000
2.0170659E-001	9.3639231E-001	-5.9369993E-003	9.3641114E-001	3.6326703E-001	2.436814011629758E+002	-3.3258731E+000	-5.0004871E+002	-1.3290247E+008	-5.3423691E+003	1.000000000000000E+000	2.4860461E-001	2.6548660E-001	0	9	-1.399246049030691E+001	1.0678855E+000	-6.7707049E-003	1.0679070E+000	-3.6326703E-001	-5.3423540E+006	8.4260634E+008	8.4262330E+008	-9.0363266E+001	0.0000000E+000	0.0000000E+000	0.0000000E+000	9.0363266E+001	0.0000000E+000	0.0000000E+000	0.0000000E+000	-9.0363266E+001	0.0000000E+000	0.0000000E+000	0.0000000E+000	3.6326703E-001	0.0000000E+000	0.0000000E+000	0.0000000E+000	-3.6326703E-001	-1.5772148E+002	-3.6326703E-001	-1.467200425408205E+000
1.5959513E-001	9.3815869E-001	-1.2013905E-002	9.3823564E-001	7.3368013E-001	2.568904017903697E+002	-3.3255298E+000	-5.0004443E+002	-8.3007304E+007	-1.3610085E+004	1.000000000000000E+000	2.4909483E-001	2.6549283E-001	0	9	-1.581312499531235E+001	1.0657430E+000	-1.3647728E-002	1.0658303E+000	-7.3368013E-001	-1.3610096E+007	1.0628035E+009	1.0628906E+009	-9.0733681E+001	0.0000000E+000	0.0000000E+000	0.0000000E+000	9.0733681E+001	0.0000000E+000	0.0000000E+000	0.0000000E+000	-9.0733681E+001	0.0000000E+000	0.0000000E+000	0.0000000E+000	7.3368013E-001	0.0000000E+000	0.0000000E+000	0.0000000E+000	-7.3368013E-001	-7.8089409E+001	-7.3368013E-001	-1.820664505005439E+000
1.2620345E-001	9.4106013E-001	-2.0867500E-002	9.4129145E-001	1.2702948E+000	2.735864025833871E+002	-3.3248465E+000	-5.0004794E+002	-6.0433604E+007	-2.9701004E+004	1.000000000000000E+000	2.4990752E-001	2.6549432E-001	0	9	-1.808135763898155E+001	1.0621091E+000	-2.3551695E-002	1.0623702E+000	-1.2702948E+000	-2.9700986E+007	1.3394239E+009	1.3397531E+009	-9.1270294E+001	0.0000000E+000	0.0000000E+000	0.0000000E+000	9.1270294E+001	0.0000000E+000	0.0000000E+000	0.0000000E+000	-9.1270294E+001	0.0000000E+000	0.0000000E+000	0.0000000E+000	1.2702948E+000	0.0000000E+000	0.0000000E+000	0.0000000E+000	-1.2702948E+000	-4.5096928E+001	-1.2702948E+000	-2.268232643669208E+000
9.9904113E-002	9.4230515E-001	-2.9744534E-002	9.4277447E-001	1.8079818E+000	2.946704035848234E+002	-3.3239086E+000	-5.0004865E+002	-5.3558648E+007	-5.3312406E+004	1.000000000000000E+000	2.5030071E-001	2.6549372E-001	0	9	-2.093193325751421E+001	1.0601710E+000	-3.3465058E-002	1.0606991E+000	-1.8079818E+000	-5.3312452E+007	1.6889340E+009	1.6897752E+009	-9.1807983E+001	0.0000000E+000	0.0000000E+000	0.0000000E+000	9.1807983E+001	0.0000000E+000	0.0000000E+000	0.0000000E+000	-9.1807983E+001	0.0000000E+000	0.0000000E+000	0.0000000E+000	1.8079818E+000	0.0000000E+000	0.0000000E+000	0.0000000E+000	-1.8079818E+000	-3.1679943E+001	-1.8079818E+000	-2.850575618532659E+000